easting[m],northing[m],elevation[m]
616797.5926,4727535.56,1237.922048
616845.163,4727572.412,1229.981872
616892.7334,4727603.403,1228.874425
616940.3037,4727629.846,1236.3436
616987.8741,4727651.989,1240.526652
617035.4445,4727669.779,1242.901681
617083.0148,4727683.42,1247.435041
617130.5852,4727694.464,1248.059597
617178.1556,4727704.178,1244.832179
617225.726,4727713.024,1241.653631
617273.2963,4727720.777,1242.014401
617320.8667,4727726.942,1244.130363
617368.4371,4727732.308,1247.240961
617416.0074,4727738.529,1251.436372
617463.5778,4727737.988,1252.66139
617511.1482,4727748.131,1249.598098
617558.7185,4727770.947,1247.802872
617606.2889,4727797.857,1248.627993
617653.8593,4727832.531,1247.218455
617701.4296,4727857.051,1243.101603
617749,4727863.283,1246.839732
617796.5704,4727867.626,1250.572687
617844.1407,4727869.837,1253.689883
617891.7111,4727865.712,1257.049328
617939.2815,4727861.581,1259.036087
617986.8518,4727860.598,1259.57145
618034.4222,4727874.731,1258.990127
618081.9926,4727891.873,1257.086915
618129.5629,4727871.855,1245.777233
618177.1333,4727877.156,1244.452374
618224.7037,4727893.816,1249.639333
618272.274,4727915.082,1254.426391
618319.8444,4727934.876,1254.00186
618367.4148,4727941.608,1252.751882
618414.9852,4727944.707,1253.921764
618462.5555,4727941.192,1253.533782
618510.1259,4727950.312,1251.070217
618557.6963,4727981.051,1242.171831
618605.2666,4727987.213,1237.423664
618652.837,4727992.173,1236.106834
618700.4074,4727993.996,1220.103015
618136.9406,4733915.864,868.8645647
618121.9205,4733842.384,883.3709672
618106.9005,4733768.903,842.4856715
618091.8805,4733695.423,797.5890853
618076.8605,4733621.942,769.128217
618061.8405,4733548.461,743.6634182
618046.8204,4733474.981,722.1469149
618031.8004,4733401.5,701.3929177
618016.7804,4733328.019,680.6951837
618001.7604,4733254.539,659.0956527
617986.7403,4733181.058,644.948782
617971.7203,4733107.578,636.25636
617956.7003,4733034.097,633.6652838
617941.6803,4732960.616,626.3970965
617926.6602,4732887.136,618.2445248
617911.6402,4732813.655,612.5971288
617896.6202,4732740.175,609.2322709
617881.6002,4732666.694,607.5408784
617866.5801,4732593.213,607.3695182
617851.5601,4732519.733,607.8107108
617836.5401,4732446.252,609.7940465
617821.5201,4732372.772,608.5852132
617806.5,4732299.291,613.915802
617791.48,4732225.81,614.3295232
617776.46,4732152.33,610.9579968
617761.44,4732078.849,608.0288089
617746.4199,4732005.369,604.1260603
617731.3999,4731931.888,602.8800025
617716.3799,4731858.407,603.5715122
617701.3599,4731784.927,604.8265845
617686.3398,4731711.446,601.6606989
617671.3198,4731637.966,606.7230696
617656.2998,4731564.485,609.5085628
617641.2798,4731491.004,606.4589599
617626.2597,4731417.524,603.7416953
617611.2397,4731344.043,603.2370789
617596.2197,4731270.563,601.0875769
617581.1997,4731197.082,601.3551519
617566.1797,4731123.601,604.1844199
617551.1596,4731050.121,609.4878111
617536.1396,4730976.64,611.9872879
617521.1196,4730903.16,611.9434173
617506.0996,4730829.679,610.0882455
617491.0795,4730756.198,609.3057062
617476.0595,4730682.718,608.6022402
617461.0395,4730609.237,607.9805633
617446.0195,4730535.757,606.8086217
617430.9994,4730462.276,605.5483907
617415.9794,4730388.795,605.3305178
617400.9594,4730315.315,600.9083908
617385.9394,4730241.834,607.752068
617370.9193,4730168.354,623.0970325
617355.8993,4730094.873,625.9449703
617340.8793,4730021.392,635.5022836
617325.8593,4729947.912,648.392914
617310.8392,4729874.431,664.2439985
617295.8192,4729800.951,685.7713065
617280.7992,4729727.47,719.8335337
617265.7792,4729653.989,762.1984814
617250.7591,4729580.509,803.7958147
617235.7391,4729507.028,842.3026282
617220.7191,4729433.548,883.4614628
617205.6991,4729360.067,910.5734101
617190.679,4729286.586,927.2321089
617175.659,4729213.106,947.6441329
617160.639,4729139.625,971.3041879
617145.619,4729066.145,989.3965141
617130.5989,4728992.664,1007.17241
617115.5789,4728919.183,1030.675074
617100.5589,4728845.703,1053.299636
617085.5389,4728772.222,1083.050264
617070.5189,4728698.742,1118.034601
617055.4988,4728625.261,1141.29856
617040.4788,4728551.78,1156.7333
617025.4588,4728478.3,1169.188128
617010.4388,4728404.819,1177.25389
616995.4187,4728331.339,1185.072837
616980.3987,4728257.858,1192.425775
616965.3787,4728184.377,1200.853507
616950.3587,4728110.897,1203.696691
616935.3386,4728037.416,1209.434619
616920.3186,4727963.936,1216.673947
616905.2986,4727890.455,1217.200788
616890.2786,4727816.974,1214.241779
616875.2585,4727743.494,1209.238114
616392.9785,4734464.585,809.7523642
616439.5056,4734451.889,812.3751939
616486.0327,4734442.897,814.2057744
616532.5599,4734437.14,816.5531202
616579.087,4734430.749,817.9891221
616625.6141,4734424.359,819.6604023
616672.1412,4734417.969,821.7640825
616718.6683,4734412.325,824.3029588
616765.1955,4734403.033,824.9268066
616811.7226,4734389.077,824.9801244
616858.2497,4734376.248,825.7551992
616904.7768,4734358.581,832.3261062
616951.3039,4734337.265,837.1741304
616997.8311,4734325.835,840.7317283
617044.3582,4734317.431,843.5187063
617090.8853,4734307.857,845.3332577
617137.4124,4734291.367,848.9949615
617183.9395,4734278.278,852.8339795
617230.4667,4734267.304,855.7833126
617276.9938,4734245.787,859.5702653
617323.5209,4734229.127,859.9177384
617370.048,4734214.921,859.3911103
617416.5751,4734193.458,861.0855754
617463.1023,4734171.647,861.6288763
617509.6294,4734150.157,861.421238
617556.1565,4734128.666,865.5249206
617602.6836,4734107.189,867.3603161
617649.2107,4734085.754,869.9597284
617695.7379,4734063.87,871.2295164
617742.265,4734040.548,874.2755612
617788.7921,4734012.796,876.3861659
617835.3192,4733987.598,877.6330782
617881.8463,4733968.642,877.1344324
617928.3735,4733952.808,879.4072515
617974.9006,4733928.934,881.5680565
618021.4277,4733901.877,883.8233836
618067.9548,4733880.67,884.3725909
618114.4819,4733851.126,883.9202567
618161.0091,4733824.885,883.8039092
618207.5362,4733804.483,880.1943933
618254.0633,4733782.552,879.8732188